framenum,queue density,dynamic density
3,0.0644309,0.0265188
6,0.0746887,0.0787729
9,0.0875166,0.0434763
12,0.0919868,0.050687
15,0.0958818,0.0571975
18,0.0991181,0.0648397
21,0.101995,0.0436883
24,0.104058,0.0269617
27,0.109255,0.0398085
30,0.112888,0.0608653
33,0.11491,0.0831296
36,0.116628,0.100307
39,0.118203,0.104406
42,0.119562,0.0963814
45,0.121382,0.0872895
48,0.121189,0.0801317
51,0.121681,0.0663197
54,0.123468,0.0366403
57,0.125667,0.0265566
60,0.125909,0.0274197
63,0.125414,0.0223135
66,0.125766,0.0229456
69,0.127802,0.0223854
72,0.128956,0.0119952
75,0.131254,0.010799
78,0.13203,0.0177524
81,0.138094,0.0237632
84,0.142174,0.0333472
87,0.154359,0.0501533
90,0.167739,0.0484159
93,0.173992,0.0497937
96,0.17093,0.0611946
99,0.174912,0.0531284
102,0.176161,0.0357962
105,0.176801,0.0362504
108,0.179795,0.0518869
111,0.188698,0.0606874
114,0.197627,0.069908
117,0.205382,0.0968962
120,0.207873,0.105708
123,0.209879,0.107468
126,0.21053,0.087297
129,0.212775,0.0809607
132,0.216552,0.0974526
135,0.218566,0.0972595
138,0.220258,0.088724
141,0.221515,0.0794315
144,0.221466,0.0750748
147,0.220375,0.0743064
150,0.221027,0.0821379
153,0.220444,0.0647072
156,0.218055,0.0577539
159,0.21463,0.0554109
162,0.212264,0.0434044
165,0.209482,0.048185
168,0.207896,0.0366441
171,0.204985,0.0223021
174,0.202487,0.0055831
177,0.20064,0.0111094
180,0.199182,0.00190393
183,0.198637,0.000783527
186,0.197067,0.00475794
189,0.196457,1.89258e-05
192,0.195424,0
195,0.194197,0.000533707
198,0.19453,6.43476e-05
201,0.195076,0.00536735
204,0.195465,0.000140051
207,0.195045,0.000420152
210,0.19545,0.00123775
213,0.195522,0
216,0.195246,0.00700254
219,0.195348,0
222,0.195113,0
225,0.195359,4.54219e-05
228,0.195711,0
231,0.19581,0.000768386
234,0.196855,0
237,0.196143,0.00036716
240,0.192827,0.00137023
243,0.193516,0.00335743
246,0.194205,0.00172603
249,0.194042,0.00245278
252,0.19352,0.000147621
255,0.193649,0.00121882
258,0.194141,0.00733184
261,0.194443,0.00345206
264,0.19419,0
267,0.194383,0.000760816
270,0.193588,3.78515e-06
273,0.193349,6.81328e-05
276,0.19358,0.00560203
279,0.193985,0.00484121
282,0.195886,0.00808509
285,0.199368,0.0132745
288,0.199932,0.0151103
291,0.196219,0.0155797
294,0.193365,0.00675272
297,0.191082,0.00580643
300,0.190439,0.00269503
303,0.190257,0
306,0.19087,0
309,0.192782,0
312,0.194402,0
315,0.196056,0
318,0.196029,0
321,0.194587,0
324,0.194568,0
327,0.194731,0
330,0.194879,0
333,0.194879,0
336,0.194992,0
339,0.195102,0.000405012
342,0.197297,0.000378515
345,0.197237,0.00871721
348,0.199198,0.0171468
351,0.197967,0.0229267
354,0.196294,0.0269427
357,0.196556,0.0268973
360,0.19665,0.0237859
363,0.196612,0.0229532
366,0.196699,0.0218631
369,0.196794,0.0229645
372,0.197683,0.0220675
375,0.19771,0.0236951
378,0.197434,0.0202089
381,0.196586,0.0191264
384,0.198232,0.0158674
387,0.202824,0.0190469
390,0.205121,0.0249442
393,0.205757,0.0131648
396,0.20779,0.0147735
399,0.209338,0.0151709
402,0.210273,0.0131269
405,0.210947,0.0379272
408,0.213346,0.0442409
411,0.220762,0.0608994
414,0.229331,0.0761611
417,0.235225,0.0972671
420,0.239702,0.111174
423,0.248196,0.13382
426,0.25814,0.152977
429,0.266426,0.158863
432,0.273761,0.150006
435,0.281941,0.152674
438,0.286222,0.195783
441,0.289984,0.20916
444,0.295125,0.213528
447,0.296885,0.216859
450,0.305602,0.215633
453,0.312237,0.219183
456,0.315716,0.21516
459,0.318191,0.205163
462,0.320307,0.172349
465,0.323669,0.106552
468,0.323782,0.0412165
471,0.322832,0.00908816
474,0.323434,0.000454219
477,0.326825,0
480,0.329081,0
483,0.3303,0
486,0.330838,0
489,0.331667,0
492,0.332685,0
495,0.330073,0
498,0.331186,0
501,0.337439,0.00312275
504,0.348295,0.0184526
507,0.358341,0.0362391
510,0.369329,0.0268746
513,0.374265,0.0501192
516,0.376634,0.0620046
519,0.380026,0.0630418
522,0.385779,0.0645407
525,0.39006,0.0687573
528,0.392827,0.0700821
531,0.394008,0.0709603
534,0.397085,0.073432
537,0.399671,0.0720353
540,0.400939,0.0702373
543,0.403441,0.073678
546,0.403812,0.0778568
549,0.405545,0.0713804
552,0.405473,0.0583065
555,0.403762,0.0566675
558,0.402986,0.0511261
561,0.400057,0.00303569
564,0.398164,0.003876
567,0.397089,0
570,0.391218,0.0030584
573,0.396412,0.00469738
576,0.403698,0.0115561
579,0.409338,0.0185927
582,0.41667,0.0199061
585,0.421602,0.0205155
588,0.42583,0.031606
591,0.430289,0.0368409
594,0.432102,0.0416859
597,0.433343,0.0441614
600,0.437674,0.0489913
603,0.441292,0.058738
606,0.445763,0.0591165
609,0.450808,0.0623945
612,0.457144,0.0747644
615,0.462709,0.0595064
618,0.467296,0.0494341
621,0.47453,0.0371059
624,0.480189,0.0350581
627,0.48565,0.0357054
630,0.490367,0.0370529
633,0.493346,0.0339301
636,0.495227,0.0344373
639,0.496658,0.0289678
642,0.496249,0.0221318
645,0.49531,0.0109391
648,0.499084,0.00438321
651,0.503388,0.0055074
654,0.507536,0.00655589
657,0.511446,0.00575722
660,0.515129,0.00959158
663,0.519891,0.0036451
666,0.523457,8.32734e-05
669,0.526462,1.51406e-05
672,0.525826,3.78515e-06
675,0.526909,0
678,0.529642,0
681,0.531723,0
684,0.533434,0
687,0.534172,7.57031e-06
690,0.53566,7.57031e-06
693,0.536932,0
696,0.53393,0
699,0.536534,0
702,0.536591,0
705,0.537772,0.000378515
708,0.538363,0
711,0.53926,0
714,0.540668,0.000957644
717,0.540952,0
720,0.533328,7.57031e-06
723,0.534907,0
726,0.534725,0
729,0.534267,0
732,0.533934,0
735,0.532109,0
738,0.530232,0
741,0.52943,0.00111284
744,0.529078,0
747,0.524463,0
750,0.524679,0
753,0.524566,0
756,0.524342,0
759,0.524611,0
762,0.52421,0
765,0.523214,0
768,0.521344,0
771,0.512896,0
774,0.514168,0
777,0.515125,0
780,0.51656,0
783,0.516541,0.000969
786,0.516337,3.78515e-06
789,0.518687,0.000700254
792,0.521761,0.00610545
795,0.525425,0.0122071
798,0.53066,0.0171051
801,0.535569,0.0202354
804,0.539078,0.0225179
807,0.540702,0.0250047
810,0.542598,0.00012491
813,0.546247,1.51406e-05
816,0.550498,0
819,0.552996,0
822,0.558886,0.000340664
825,0.560949,0
828,0.563087,5.29922e-05
831,0.564298,0.0013778
834,0.563326,0
837,0.562228,0.000177902
840,0.56188,0.000878156
843,0.562289,0
846,0.56102,0
849,0.561728,3.78515e-06
852,0.562133,0.00110148
855,0.563046,3.40664e-05
858,0.563227,0
861,0.563413,0.000363375
864,0.563689,0
867,0.56417,0.000147621
870,0.561732,0.00119611
873,0.563628,0
876,0.564079,0
879,0.565048,0
882,0.5637,0.000575344
885,0.563363,0
888,0.563292,1.13555e-05
891,0.563579,0.00123018
894,0.564567,0.0008668
897,0.566183,0
900,0.566831,3.02812e-05
903,0.566305,0
906,0.561959,0
909,0.563874,2.27109e-05
912,0.564245,6.81328e-05
915,0.562035,0.000620765
918,0.55853,6.05625e-05
921,0.556312,0.0026004
924,0.555551,0
927,0.554987,0
930,0.551266,0
933,0.552334,0
936,0.554048,0
939,0.557084,0
942,0.560638,0.000268746
945,0.561039,0.000280101
948,0.561335,0
951,0.560801,0
954,0.560381,0
957,0.55842,3.02812e-05
960,0.558874,0
963,0.559858,0
966,0.560725,0
969,0.561259,0
972,0.563208,3.78515e-05
975,0.564385,9.08437e-05
978,0.565809,9.46289e-05
981,0.563784,0.000147621
984,0.564639,0.00186987
987,0.564314,4.16367e-05
990,0.564011,0.000545062
993,0.564314,6.43476e-05
996,0.565067,0.000635906
999,0.562429,0.000529922
1002,0.560176,7.57031e-06
1005,0.55694,0.000264961
1008,0.557277,0
1011,0.559071,0.00467845
1014,0.559631,0.0033915
1017,0.557262,0.000658617
1020,0.556978,0.00568152
1023,0.557209,0.000208184
1026,0.556781,2.27109e-05
1029,0.55683,0
1032,0.55666,0
1035,0.557156,0.00165411
1038,0.555876,0
1041,0.556509,0
1044,0.55842,3.40664e-05
1047,0.560093,0
1050,0.559075,7.57031e-06
1053,0.558984,0
1056,0.558575,0
1059,0.558219,0.0026004
1062,0.553439,0.000140051
1065,0.553386,0.00299027
1068,0.552981,0
1071,0.553261,3.78515e-06
1074,0.554317,0.00437942
1077,0.555445,0
1080,0.555119,0
1083,0.55568,0
1086,0.553337,0.000200613
1089,0.554995,7.57031e-06
1092,0.555839,0.00507968
1095,0.557383,0.00140429
1098,0.558693,0.00475415
1101,0.558064,0.00790719
1104,0.558746,0.000775957
1107,0.55845,0.000927363
1110,0.558537,0
1113,0.555926,0
1116,0.556342,0
1119,0.555464,3.78515e-06
1122,0.556039,0
1125,0.555922,0
1128,0.55881,0.00459518
1131,0.559703,0.0110981
1134,0.559575,0.0152845
1137,0.55803,0.01642
1140,0.558004,0.0174004
1143,0.557375,0.0159279
1146,0.558121,0.0168931
1149,0.558848,0.00902381
1152,0.559518,0.00500019
1155,0.557845,0.00744161
1158,0.558704,0.00194935
1161,0.556467,0.00250577
1164,0.559249,0.0012226
1167,0.55867,4.54219e-05
1170,0.556509,0.000397441
1173,0.556675,0
1176,0.55546,0
1179,0.554177,0.000276316
1182,0.553064,0
1185,0.554071,0.000863015
1188,0.552175,0.000389871
1191,0.551474,3.78515e-06
1194,0.552182,3.78515e-06
1197,0.552648,5.29922e-05
1200,0.552485,0
1203,0.55194,0
1206,0.552114,0
1209,0.552663,0
1212,0.549676,0
1215,0.550369,0
1218,0.550664,0
1221,0.551542,0
1224,0.551811,0
1227,0.551807,0
1230,0.553484,0
1233,0.553409,8.32734e-05
1236,0.551796,0.00921685
1239,0.552973,0.00148
1242,0.554756,0.000340664
1245,0.555127,0.00143836
1248,0.554044,0.000991711
1251,0.554222,0.000238465
1254,0.552704,0.000889511
1257,0.552882,0.000310383
1260,0.552614,0.00310761
1263,0.551009,0
1266,0.551296,0.00849767
1269,0.551516,0.000177902
1272,0.552746,0.00774821
1275,0.552731,0
1278,0.553268,0.00296756
1281,0.553742,0.00730913
1284,0.553083,0.00193043
1287,0.551164,0.00908816
1290,0.55356,0.000378515
1293,0.55434,0
1296,0.554798,0.000166547
1299,0.557088,0.00153299
1302,0.556709,0.0099701
1305,0.556024,0.0115107
1308,0.555608,0.000219539
1311,0.551845,0.00197585
1314,0.551247,0.0107915
1317,0.549688,0.00990196
1320,0.549885,0
1323,0.549945,0
1326,0.549389,0
1329,0.548654,0
1332,0.549237,0
1335,0.549256,0
1338,0.54957,0
1341,0.550403,0
1344,0.551455,1.13555e-05
1347,0.553507,0
1350,0.554147,0
1353,0.555702,0.000488285
1356,0.558072,0.00552254
1359,0.559518,0.0112646
1362,0.557637,0.0226352
1365,0.559139,0.0235096
1368,0.557591,0.0266323
1371,0.557671,0.0264393
1374,0.555786,0.0268216
1377,0.553613,0.025705
1380,0.552591,0.0216587
1383,0.551577,0.0211666
1386,0.545846,0.020103
1389,0.547485,0.0116431
1392,0.548041,0.0132972
1395,0.547859,0.00611302
1398,0.546917,0.00566638
1401,0.547303,0.00242628
1404,0.546542,7.57031e-06
1407,0.545812,0.00174874
1410,0.545384,0.00167682
1413,0.539002,0.000654832
1416,0.540524,9.08437e-05
1419,0.541883,0.0015557
1422,0.543567,0
1425,0.545134,0.000802453
1428,0.547364,0.00133994
1431,0.550929,0.0124115
1434,0.55434,0.00878913
1437,0.552088,0.00925092
1440,0.556724,0.00680192
1443,0.561675,0.0300958
1446,0.56342,0.0231273
1449,0.565604,0.0611378
1452,0.566744,0.091544
1455,0.568296,0.120137
1458,0.568788,0.17311
1461,0.565888,0.208986
1464,0.567433,0.231693
1467,0.566535,0.213755
1470,0.564851,0.250006
1473,0.564522,0.260585
1476,0.563655,0.250929
1479,0.556391,0.28925
1482,0.552852,0.33351
1485,0.548609,0.361497
1488,0.537776,0.372883
1491,0.531996,0.378035
1494,0.522938,0.383989
1497,0.516571,0.393225
1500,0.510299,0.389534
1503,0.505061,0.377297
1506,0.500844,0.408725
1509,0.495503,0.403744
1512,0.480862,0.451686
1515,0.476006,0.462712
1518,0.466479,0.493054
1521,0.461202,0.529683
1524,0.454885,0.5482
1527,0.451315,0.574791
1530,0.453772,0.582672
1533,0.452281,0.59659
1536,0.444888,0.569355
1539,0.446342,0.577266
1542,0.444956,0.591147
1545,0.445032,0.592604
1548,0.445604,0.592214
1551,0.442621,0.600091
1554,0.442216,0.611791
1557,0.44418,0.630501
1560,0.447019,0.642526
1563,0.452776,0.630792
1566,0.458023,0.630913
1569,0.46021,0.634161
1572,0.458935,0.633434
1575,0.461872,0.630629
1578,0.466437,0.629043
1581,0.473557,0.632806
1584,0.477213,0.61759
1587,0.474988,0.60578
1590,0.473534,0.603028
1593,0.471778,0.61723
1596,0.476301,0.636281
1599,0.483118,0.648995
1602,0.496624,0.637038
1605,0.504996,0.674007
1608,0.51145,0.674299
1611,0.499568,0.656281
1614,0.498395,0.652326
1617,0.487944,0.633457
1620,0.471097,0.625591
1623,0.464363,0.619535
1626,0.459779,0.577535
1629,0.455437,0.563208
1632,0.454169,0.563545
1635,0.453212,0.570502
1638,0.44837,0.501431
1641,0.440569,0.543878
1644,0.434411,0.515901
1647,0.429888,0.577437
1650,0.424622,0.564306
1653,0.421719,0.567951
1656,0.419429,0.528892
1659,0.418112,0.521
1662,0.41053,0.539252
1665,0.410205,0.581544
1668,0.412661,0.57682
1671,0.412658,0.556251
1674,0.41332,0.573371
1677,0.41349,0.582713
1680,0.416647,0.596094
1683,0.419444,0.573061
1686,0.418252,0.562981
1689,0.429191,0.535861
1692,0.440755,0.587392
1695,0.453215,0.586566
1698,0.464957,0.599201
1701,0.473235,0.553973
1704,0.47911,0.579325
1707,0.479575,0.582312
1710,0.46546,0.583451
1713,0.457761,0.575476
1716,0.456217,0.612919
1719,0.447201,0.592422
1722,0.440187,0.556387
1725,0.434929,0.538434
1728,0.431784,0.536428
1731,0.417154,0.535111
1734,0.409667,0.53343
1737,0.410841,0.536833
1740,0.406931,0.526167
1743,0.400382,0.508218
1746,0.39062,0.529922
1749,0.379042,0.514073
1752,0.374488,0.536705
1755,0.371963,0.551898
1758,0.365706,0.542235
1761,0.354101,0.505799
1764,0.348242,0.494629
1767,0.344506,0.515341
1770,0.347617,0.52974
1773,0.349056,0.514611
1776,0.342973,0.513487
1779,0.332022,0.4988
1782,0.327715,0.487221
1785,0.322295,0.472399
1788,0.313566,0.44183
1791,0.307241,0.425697
1794,0.291888,0.41293
1797,0.278273,0.411253
1800,0.276294,0.42868
1803,0.270688,0.459631
1806,0.265718,0.468958
1809,0.261149,0.447727
1812,0.24077,0.458363
1815,0.232919,0.439672
1818,0.224831,0.412835
1821,0.225395,0.420357
1824,0.224494,0.423286
1827,0.2267,0.429244
1830,0.232768,0.411091
1833,0.229191,0.461013
1836,0.22494,0.453503
1839,0.222503,0.45568
1842,0.216231,0.452814
1845,0.208172,0.41212
1848,0.197267,0.336353
1851,0.173406,0.312994
1854,0.151134,0.287055
1857,0.145115,0.251213
1860,0.144983,0.271933
1863,0.140403,0.227817
1866,0.134214,0.225769
1869,0.151277,0.228514
1872,0.171532,0.254695
1875,0.174965,0.28255
1878,0.186809,0.335266
1881,0.206885,0.34809
1884,0.226519,0.324236
1887,0.247424,0.330751
1890,0.273031,0.352148
1893,0.29517,0.346887
1896,0.311484,0.35032
1899,0.328109,0.379023
1902,0.356414,0.391975
1905,0.378084,0.355808
1908,0.39073,0.378167
1911,0.377414,0.444086
1914,0.35549,0.48523
1917,0.333699,0.404099
1920,0.318562,0.376994
1923,0.308986,0.347277
1926,0.294107,0.347772
1929,0.273394,0.310856
1932,0.251735,0.317518
1935,0.232904,0.287573
1938,0.219437,0.285825
1941,0.209622,0.229566
1944,0.200893,0.282819
1947,0.188183,0.302979
1950,0.176191,0.259586
1953,0.154574,0.226651
1956,0.125554,0.187467
1959,0.100291,0.144676
1962,0.0729929,0.131572
1965,0.0508725,0.0652031
1968,0.0326848,0.0356032
1971,0.014781,0.0126538
1974,0.00457625,0.00846361
1977,0.00285779,0.00246035
1980,0.0031871,0.0031871
1983,0.00302812,0.00126803
1986,0.00497369,0.00169953
1989,0.00501533,0.00146864
1992,0.00462167,0.000529922
1995,0.00438321,0.00149514
1998,0.00372081,0.00266853
2001,0.00797532,0.00452704
2004,0.0346909,0.0192967
2007,0.0691888,0.0430826
2010,0.10676,0.066244
2013,0.150131,0.0975775
2016,0.191018,0.123994
2019,0.234127,0.149506
2022,0.267542,0.184454
2025,0.298967,0.211643
2028,0.319883,0.220474
2031,0.333529,0.179727
2034,0.315201,0.198342
2037,0.293368,0.250369
2040,0.269878,0.204538
2043,0.245111,0.121988
2046,0.220141,0.140713
2049,0.196824,0.195125
2052,0.175196,0.191957
2055,0.156024,0.177702
2058,0.142356,0.102108
2061,0.134823,0.145142
2064,0.109754,0.187259
2067,0.0867444,0.12033
2070,0.062985,0.0625421
2073,0.0418752,0.0549756
2076,0.024119,0.0224876
2079,0.0127257,0.00568152
2082,0.0092812,0.00171846
2085,0.00906923,0.00199478
2088,0.00950831,0.00971271
2091,0.00923578,0.00168061
2094,0.00906545,0.00112798
2097,0.0107801,0.00339528
2100,0.0109618,0.00412203
2103,0.0162005,0.0258488
2106,0.0235512,0.0360385
2109,0.0305916,0.054105
2112,0.0415269,0.0840607
2115,0.0520875,0.112726
2118,0.0629888,0.144036
2121,0.0790832,0.172213
2124,0.105379,0.202339
2127,0.1308,0.227367
2130,0.146402,0.269094
2133,0.159317,0.277459
2136,0.171502,0.270646
2139,0.181002,0.285007
2142,0.188315,0.287036
2145,0.193777,0.280586
2148,0.196181,0.286646
2151,0.198891,0.280908
2154,0.20567,0.289659
2157,0.222703,0.309682
2160,0.228555,0.331057
2163,0.225092,0.318532
2166,0.221477,0.293262
2169,0.216568,0.32533
2172,0.205621,0.303622
2175,0.186559,0.26914
2178,0.166634,0.256247
2181,0.147129,0.207608
2184,0.126587,0.181351
2187,0.106537,0.175737
2190,0.0854385,0.144608
2193,0.0637571,0.0873689
2196,0.046213,0.0581097
2199,0.033139,0.0772437
2202,0.0245732,0.0411863
2205,0.0168591,0.0122033
2208,0.0109012,0.0278171
2211,0.00694954,0.0230327
2214,0.00514403,0.0179
2217,0.00473901,0.00460275
2220,0.00456868,0.00777849
2223,0.00445134,0.0119422
2226,0.00449298,0.00633256
2229,0.00483743,0.00738862
2232,0.00493584,0.00774821
2235,0.00514403,0.0136644
2238,0.00557932,0.00742647
2241,0.00615466,0.00654075
2244,0.00532571,0.0085923
2247,0.00631364,0.00869829
2250,0.00650668,0.0133578
2253,0.00847875,0.00621144
2256,0.00853931,0.0226844
2259,0.00998902,0.00794504
2262,0.0101026,0.0224914
2265,0.0109845,0.0118967
2268,0.0229418,0.0419547
2271,0.0410651,0.0489761
2274,0.0543208,0.0859722
2277,0.0600818,0.0691926
2280,0.0634619,0.113505
2283,0.0666982,0.10335
2286,0.069821,0.0879178
2289,0.0693554,0.0902229
2292,0.0698664,0.0995496
2295,0.0704077,0.123093
2298,0.0729286,0.110939
2301,0.0802415,0.147383
2304,0.0811689,0.141198
2307,0.0806427,0.109001
2310,0.0756009,0.150524
2313,0.0688671,0.0938037
2316,0.0620538,0.0986979
2319,0.0575949,0.0806503
2322,0.0524206,0.0560241
2325,0.0458723,0.0760097
2328,0.0383474,0.0766229
2331,0.0379159,0.105738
2334,0.0327908,0.0994701
2337,0.0301336,0.0597449
2340,0.0262538,0.048397
2343,0.0223173,0.0478519
2346,0.0192172,0.0647261
2349,0.0152655,0.0314433
2352,0.0141754,0.0525985
2355,0.0101442,0.0390249
2358,0.00875128,0.0360422
2361,0.0113138,0.0414512
2364,0.0118816,0.0185548
2367,0.0126878,0.0205685
2370,0.0127105,0.0321625
2373,0.013301,0.0466217
2376,0.0136417,0.0257126
2379,0.0143268,0.0311102
2382,0.0131648,0.0348764
2385,0.0241417,0.0350127
2388,0.0464325,0.0689163
2391,0.0513721,0.101711
2394,0.05451,0.0819827
2397,0.0568341,0.108255
2400,0.0592982,0.0671411
2403,0.0617851,0.129293
2406,0.0637042,0.137515
2409,0.0679019,0.101923
2412,0.0706386,0.119388
2415,0.060377,0.0759983
2418,0.050581,0.0860782
2421,0.0364548,0.0841781
2424,0.0209092,0.0813392
2427,0.00938718,0.02611
2430,0.00123396,0.00876642
2433,0.00666944,0.00304326
2436,0.0314925,0.0304856
2439,0.0392445,0.033968
2442,0.0444642,0.0766153
2445,0.0481131,0.054457
2448,0.0515273,0.101491
2451,0.0541466,0.10282
2454,0.0568984,0.0848594
2457,0.0597941,0.0754571
2460,0.0618002,0.0466066
2463,0.0602862,0.0413452
2466,0.0484046,0.0530679
2469,0.0360952,0.0643476
2472,0.0244142,0.0319278
2475,0.0142246,0.0312616
2478,0.0135925,0.0405996
2481,0.0126235,0.0274878
2484,0.014747,0.00865665
2487,0.0168402,0.0171089
2490,0.0179681,0.0333624
2493,0.0192248,0.0171278
2496,0.0201597,0.0118059
2499,0.0213218,0.0152277
2502,0.0221886,0.00528786
2505,0.0241039,0.0187138
2508,0.0256785,0.0475907
2511,0.0373292,0.0414437
2514,0.0529732,0.0655892
2517,0.0539687,0.114403
2520,0.0547106,0.120769
2523,0.0587342,0.0984102
2526,0.0613006,0.101196
2529,0.0646845,0.105
2532,0.0667588,0.100583
2535,0.0691813,0.134464
2538,0.0704796,0.153726
2541,0.0720845,0.159124
2544,0.0768689,0.151058
2547,0.0789205,0.181956
2550,0.0740603,0.194701
2553,0.0653583,0.19268
2556,0.0545403,0.173197
2559,0.0400886,0.112283
2562,0.0271661,0.0598054
2565,0.0144366,0.0419282
2568,0.00600326,0.0210417
2571,0.00493963,0.00521594
2574,0.00528786,0.000306598
2577,0.00532193,0
2580,0.00565124,0
2583,0.00559824,0
2586,0.00627579,0
2589,0.00564367,0
2592,0.0054317,0
2595,0.00591241,0
2598,0.00579507,0
2601,0.00581778,0
2604,0.00565124,0
2607,0.005814,0
2610,0.00579886,0
2613,0.00633256,0
2616,0.0063742,0
2619,0.00566259,0
2622,0.00570423,0
2625,0.00938718,0.00153677
2628,0.0266096,0.0182407
2631,0.037034,0.0410159
2634,0.0415724,0.0463606
2637,0.0475832,0.0657633
2640,0.0660509,0.0988228
2643,0.0887354,0.12809
2646,0.110224,0.160055
2649,0.131042,0.1857
2652,0.140354,0.229729
2655,0.147049,0.248681
2658,0.15434,0.264272
2661,0.161134,0.27473
2664,0.159166,0.262572
2667,0.151845,0.323994
2670,0.146107,0.350006
2673,0.140361,0.344048
2676,0.138752,0.340721
